timestep,time,target_position,position,velocity,torque,amplitude,frequency,1,0.018345117568969727,0.0,-1.2785196304321289e-05,-0.003386671422049403,0.001857221475802362,0.0,0.0
2,0.028191804885864258,0.0,-1.0579824447631836e-05,0.002901616971939802,-3.1686387956142426e-05,0.0,0.0
3,0.03148150444030762,0.0,-3.3736228942871094e-05,-0.005677727051079273,0.003964956849813461,0.0,0.0
4,0.03651237487792969,0.0,-1.004338264465332e-05,0.0007856521406210959,0.002842894522473216,0.0,0.0
5,0.041040658950805664,0.0,-3.4421682357788086e-05,0.00625437730923295,-0.002494690241292119,0.0,0.0
6,0.04601478576660156,0.0,-1.7642974853515625e-05,-0.0003617378242779523,-0.0005801424849778414,0.0,0.0
7,0.049919843673706055,0.0,-9.08970832824707e-06,-0.0020381188951432705,-0.001244888175278902,0.0,0.0
8,0.052403926849365234,0.0,-1.4334917068481445e-05,-0.0024330001324415207,-0.0006362362764775753,0.0,0.0
9,0.05625772476196289,0.0,-2.2172927856445312e-05,-0.007190195843577385,-0.00033070100471377373,0.0,0.0
10,0.06550884246826172,0.0,-4.351139068603516e-06,0.0032331666443496943,0.00017414218746125698,0.0,0.0
11,0.07022619247436523,0.0,-1.3947486877441406e-05,-0.003807632252573967,0.0012485692277550697,0.0,0.0
12,0.07343792915344238,0.0,-2.110004425048828e-05,0.0029127916786819696,-0.00161904061678797,0.0,0.0
13,0.0751340389251709,0.0,1.519918441772461e-06,0.004242720548063517,0.0010392812546342611,0.0,0.0
14,0.07665681838989258,0.0,-1.537799835205078e-05,-0.001445797854103148,-0.00026573316426947713,0.0,0.0
15,0.07793521881103516,0.0,-6.020069122314453e-06,-0.003639993956312537,0.004136924631893635,0.0,0.0
16,0.07919073104858398,0.0,-2.720952033996582e-05,-0.0010248406324535608,0.0028544911183416843,0.0,0.0
17,0.08079886436462402,0.0,-2.2858381271362305e-05,-0.0066723814234137535,-0.0009133340790867805,0.0,0.0
18,0.0821986198425293,0.0,-1.5497207641601562e-05,0.0003237139608245343,0.003952432423830032,0.0,0.0
19,0.08369064331054688,0.0,1.8775463104248047e-06,0.007684888318181038,0.00524162407964468,0.0,0.0
20,0.08493185043334961,0.0,-1.7762184143066406e-05,-9.724304254632443e-05,0.004248154349625111,0.0,0.0
21,0.08624768257141113,0.0,-7.569789886474609e-06,0.002700450364500284,-0.0024635600857436657,0.0,0.0
22,0.08768057823181152,0.0,-3.0666589736938477e-05,0.0010911246063187718,0.0006004110327921808,0.0,0.0
23,0.08912992477416992,0.0,-2.8312206268310547e-05,0.0014152241637930274,-0.0006748342420905828,0.0,0.0
24,0.0908195972442627,0.0,-5.453824996948242e-06,0.004671127535402775,0.0014603903982788324,0.0,0.0
25,0.0921933650970459,0.0,1.817941665649414e-06,0.005740285851061344,0.0014341253554448485,0.0,0.0
26,0.09360408782958984,0.0,-3.1620264053344727e-05,-0.010621189139783382,-0.0005522229475900531,0.0,0.0
27,0.09505033493041992,0.0,-3.2454729080200195e-05,-0.008099167607724667,0.0008779004565440118,0.0,0.0
28,0.09642338752746582,0.0,-2.3663043975830078e-05,-0.01084843184798956,-0.000725229037925601,0.0,0.0
29,0.09793353080749512,0.0,-1.6033649444580078e-05,0.006422014441341162,0.0013345105107873678,0.0,0.0
30,0.09918522834777832,0.0,-1.3470649719238281e-05,-0.0027980792801827192,-0.0021618884056806564,0.0,0.0
31,0.10044646263122559,0.0,-8.225440979003906e-06,0.004380555357784033,-0.00044844229705631733,0.0,0.0
32,0.10180401802062988,0.0,-3.2335519790649414e-05,-0.007342933677136898,-0.00226885755546391,0.0,0.0
33,0.10336709022521973,0.0,-1.9073486328125e-05,-0.006627677474170923,-0.0019547422416508198,0.0,0.0
34,0.10482931137084961,0.0,-2.288818359375e-05,0.0051591419614851475,-0.0016202495899051428,0.0,0.0
35,0.10619282722473145,0.0,-1.1980533599853516e-05,0.005159142427146435,-0.0010918849147856236,0.0,0.0
36,0.10768437385559082,0.0,1.817941665649414e-06,0.004753085784614086,0.0009562127524986863,0.0,0.0
37,0.10913228988647461,0.0,-3.427267074584961e-06,-0.01111292652785778,-0.0021035526879131794,0.0,0.0
38,0.1107327938079834,0.0,-4.667043685913086e-05,-0.019535807892680168,0.002993711270391941,0.0,0.0
39,0.11219978332519531,0.0,-1.3500452041625977e-05,0.009234610013663769,-0.0005377049092203379,0.0,0.0
40,0.11368465423583984,0.0,-1.4603137969970703e-06,0.007159623317420483,0.00023118837270885706,0.0,0.0
41,0.11499381065368652,0.0,-2.682209014892578e-06,0.004246446769684553,0.001541897072456777,0.0,0.0
42,0.11636877059936523,0.0,-1.4007091522216797e-06,0.003378454130142927,-0.003016785020008683,0.0,0.0
43,0.11768460273742676,0.0,-6.377696990966797e-06,0.00274887983687222,0.002930773887783289,0.0,0.0
44,0.1189727783203125,0.0,-3.7223100662231445e-05,-0.011776027269661427,0.002199161797761917,0.0,0.0
45,0.12021303176879883,0.0,-1.1593103408813477e-05,0.0010240706615149975,6.721727550029755e-05,0.0,0.0
46,0.12184023857116699,0.0,-2.771615982055664e-06,0.007841352373361588,0.00033147449721582234,0.0,0.0
47,0.12319231033325195,0.0,-3.3676624298095703e-06,0.005591277033090591,-0.0008247458608821034,0.0,0.0
48,0.12443280220031738,0.0,1.5497207641601562e-06,-0.0019114577444270253,0.0009184435475617647,0.0,0.0
49,0.12581181526184082,0.0,-2.9802322387695312e-08,-0.0030327702406793833,0.002334429882466793,0.0,0.0
50,0.12719058990478516,0.0,-1.874566078186035e-05,0.00261476868763566,-0.0014687845250591636,0.0,0.0
51,0.12843561172485352,0.0,-5.370378494262695e-05,-0.017471998929977417,0.0011355875758454204,0.0,0.0
52,0.12991547584533691,0.0,-7.271766662597656e-06,0.012345226481556892,0.0025223256088793278,0.0,0.0
53,0.13126349449157715,0.0,3.904104232788086e-06,0.007908405736088753,0.0025162473320961,0.0,0.0
54,0.13293838500976562,0.0,-7.808208465576172e-06,0.0026818234473466873,0.0035078036598861217,0.0,0.0
55,0.13419198989868164,0.0,-6.705522537231445e-06,-0.0036288180854171515,-0.0008405141998082399,0.0,0.0
56,0.13558316230773926,0.0,-5.435943603515625e-05,-0.01603776030242443,0.00020270678214728832,0.0,0.0
57,0.13693737983703613,0.0,-4.202127456665039e-06,0.012367579154670238,0.0016366317868232727,0.0,0.0
58,0.13844537734985352,0.0,3.5762786865234375e-06,0.007245304994285107,-0.0037354121450334787,0.0,0.0
59,0.1401515007019043,0.0,-1.004338264465332e-05,0.002201261930167675,-0.002607756294310093,0.0,0.1
60,0.14160871505737305,0.0,1.043081283569336e-06,0.0025216368958353996,-6.392505019903183e-05,0.0,0.1
61,0.14293265342712402,0.0,-4.1097402572631836e-05,-0.02064594440162182,0.0004436052404344082,0.0,0.1
62,0.14419078826904297,0.0,-6.046891212463379e-05,-0.010569034144282341,0.0019002454355359077,0.0,0.1
63,0.14543795585632324,0.0,-2.5033950805664062e-06,0.01194289606064558,-0.0037403018213808537,0.0,0.1
64,0.1466834545135498,0.0,3.904104232788086e-06,0.0070366887375712395,-0.0013707111356779933,0.0,0.1
65,0.1481318473815918,0.0,-2.86102294921875e-06,0.002950045047327876,0.0010903048096224666,0.0,0.1
66,0.14960050582885742,0.0,-3.102421760559082e-05,-0.00862070731818676,0.0002338604535907507,0.0,0.1
67,0.15085387229919434,0.0,-5.4329633712768555e-05,-0.015255449339747429,0.005408066790550947,0.0,0.1
68,0.15230560302734375,0.0,-5.8650970458984375e-05,-0.00980907492339611,-0.001908094622194767,0.0,0.1
69,0.15368127822875977,0.0,-1.0758638381958008e-05,0.00973379984498024,-3.3356714993715286e-05,0.0,0.1
70,0.15493035316467285,0.0,2.7120113372802734e-06,0.012371305376291275,0.0035809059627354145,0.0,0.1
71,0.15644145011901855,0.0,3.516674041748047e-06,0.005852047353982925,0.002475475426763296,0.0,0.1
72,0.1578052043914795,0.0,1.341104507446289e-06,0.0019851960241794586,-0.0005100941634736955,0.0,0.1
73,0.15920114517211914,0.0,-1.1652708053588867e-05,-0.001039740163832903,-0.0015692714368924499,0.0,0.1
74,0.16043734550476074,0.0,-2.1904706954956055e-05,-0.007085888180881739,-0.0006684880936518312,0.0,0.2
75,0.16199541091918945,0.0,-3.6954879760742188e-06,0.007278831209987402,-0.00043477435247041285,0.0,0.2
76,0.16348004341125488,0.0,2.086162567138672e-06,0.004503489937633276,0.0035529236774891615,0.0,0.2
77,0.16498637199401855,0.0,9.834766387939453e-07,0.0015456094406545162,-0.0025499253533780575,0.0,0.2
78,0.16634249687194824,0.0,4.172325134277344e-07,0.0006105615757405758,0.0016262104036286473,0.0,0.2
79,0.16755986213684082,0.0,1.4901161193847656e-07,0.00026038428768515587,-0.00018621097842697054,0.0,0.2
80,0.16892337799072266,0.0,-1.9848346710205078e-05,-0.009388118982315063,0.0018040032591670752,0.0,0.2
81,0.17018365859985352,0.0,-4.07099723815918e-05,-0.009950637817382812,-0.0007693443913012743,0.0,0.2
82,0.1713271141052246,0.0,-1.84476375579834e-05,0.005069733131676912,8.703581988811493e-05,0.0,0.2
83,0.17260074615478516,0.0,1.3709068298339844e-06,0.00785252545028925,0.0025411462411284447,0.0,0.2
84,0.17392778396606445,0.0,2.3245811462402344e-06,0.004086256958544254,-0.00030778534710407257,0.0,0.2
85,0.17543244361877441,0.0,-4.699826240539551e-05,-0.008765995502471924,-0.0026541559491306543,0.0,0.30000000000000004
86,0.1766982078552246,0.0,-4.583597183227539e-05,-0.008803248405456543,0.00391550175845623,0.0,0.30000000000000004
87,0.17793726921081543,0.0,-6.341934204101562e-05,-0.0023212432861328125,-0.001457392587326467,0.0,0.30000000000000004
88,0.17924165725708008,0.0,-2.4557113647460938e-05,0.007684885989874601,0.0007271463982760906,0.0,0.30000000000000004
89,0.18058252334594727,0.0,2.9802322387695312e-06,0.012665599584579468,-0.0019373376853764057,0.0,0.30000000000000004
90,0.18219566345214844,0.0,-1.1473894119262695e-05,0.0018399053951725364,0.0021068311762064695,0.0,0.30000000000000004
91,0.18380022048950195,0.0,-3.2961368560791016e-05,-0.009417922236025333,-0.004190655425190926,0.0,0.30000000000000004
92,0.18580198287963867,0.0,-2.0205974578857422e-05,0.008046239614486694,0.0006232925807125866,0.0,0.4
93,0.18780136108398438,0.0,2.7120113372802734e-06,0.005680680274963379,-0.004644355736672878,0.0,0.4
94,0.189802885055542,0.0,-1.4275312423706055e-05,-0.0025037825107574463,0.0010415669530630112,0.0,0.4
95,0.19194674491882324,0.0,-1.8775463104248047e-05,-0.0031184551771730185,0.0014686044305562973,0.0,0.4
96,0.1938037872314453,0.0,-4.684925079345703e-05,0.0008415288175456226,0.003864889731630683,0.0,0.4
97,0.1958315372467041,0.0,1.996755599975586e-06,0.008452297188341618,-0.0018096044659614563,0.0,0.5
98,0.19783687591552734,0.0,1.519918441772461e-06,0.0024843821302056313,0.0013262000866234303,0.0,0.5
99,0.20013070106506348,0.0,-4.6312808990478516e-05,-0.01136624813079834,0.0029505102429538965,0.0,0.5
100,0.20180296897888184,0.0,-5.882978439331055e-05,-0.014629603363573551,0.005260753445327282,0.0,0.5
101,0.20380473136901855,0.0,-5.21540641784668e-06,0.011045098304748535,-0.0013026208616793156,0.0,0.5
102,0.20580363273620605,0.0,1.7583370208740234e-06,0.005520492326468229,-0.004188681486994028,0.0,0.6000000000000001
103,0.20784544944763184,0.0,7.152557373046875e-07,0.002611040836200118,-0.0009513078257441521,0.0,0.6000000000000001
104,0.20980286598205566,0.0,-6.8247318267822266e-06,0.0028420083690434694,0.0008605886832810938,0.0,0.6000000000000001
105,0.21180248260498047,0.0,-1.8477439880371094e-06,0.0050809080712497234,0.005603225436061621,0.0,0.6000000000000001
106,0.21382474899291992,0.0,1.1026859283447266e-06,0.0019963677041232586,-0.005448189564049244,0.0,0.6000000000000001
107,0.21582865715026855,0.0,-2.3543834686279297e-06,-0.006467492785304785,0.004717815667390823,0.0,0.7000000000000001
108,0.21782898902893066,0.0,-4.25875186920166e-05,-0.01689458079636097,0.0038480546791106462,0.0,0.7000000000000001
109,0.21981477737426758,0.0,-2.8342008590698242e-05,0.007118642330169678,0.0005383397801779211,0.0,0.7000000000000001
110,0.2218031883239746,0.0,3.427267074584961e-06,0.006876498460769653,-0.001438619801774621,0.0,0.7000000000000001
111,0.2238020896911621,0.0,1.1622905731201172e-06,0.0017840266227722168,-0.0014445625711232424,0.0,0.7000000000000001
112,0.22580409049987793,0.0,-5.942583084106445e-05,-0.01196229550987482,0.0015757842920720577,0.0,0.8
113,0.22792792320251465,0.0,-2.771615982055664e-05,-0.0018146043876186013,-0.0009035489056259394,0.0,0.8
114,0.22981595993041992,0.0,2.8312206268310547e-06,0.007032960653305054,0.0008680502651259303,0.0,0.8
115,0.23182177543640137,0.0,-6.377696990966797e-06,-0.006646305322647095,-0.005243424791842699,0.0,0.8
116,0.23380589485168457,0.0,-4.1872262954711914e-05,-0.015750914812088013,0.0023190726060420275,0.0,0.8
117,0.23643183708190918,0.0,-2.79843807220459e-05,0.010631592012941837,2.0569423213601112e-05,0.0,0.9
118,0.2381913661956787,0.0,3.844499588012695e-06,0.008899332024157047,0.002197824651375413,0.0,0.9
119,0.23980236053466797,0.0,-2.562999725341797e-06,0.0032406162936240435,5.5772485211491585e-05,0.0,0.9
120,0.24181723594665527,0.0,-3.6388635635375977e-05,-0.020407527685165405,0.002074927557259798,0.0,0.9
121,0.2438068389892578,0.0,-4.4733285903930664e-05,-0.00600928021594882,-0.0001773738767951727,0.0,0.9
122,0.2458021640777588,0.0,-2.86102294921875e-06,0.014498444274067879,0.005418785382062197,0.0,1.0
123,0.24819540977478027,0.0,2.7418136596679688e-06,0.0044103581458330154,0.0006668791174888611,0.0,1.0
124,0.2499370574951172,0.0,-3.927946090698242e-05,-0.019893435761332512,0.001794904936105013,0.0,1.0
125,0.2519388198852539,0.0,-5.301833152770996e-05,0.0016722707077860832,0.003915396984666586,0.0,1.0
126,0.2538111209869385,0.0,-7.331371307373047e-06,0.009703997522592545,0.0005738729378208518,0.0,1.0
127,0.25580573081970215,0.0,-7.18235969543457e-06,0.002547714626416564,-0.002648998284712434,0.0,1.1
128,0.2578125,0.0,-1.5437602996826172e-05,-0.0067506106570363045,-0.00012140895705670118,0.0,1.1
129,0.25980448722839355,0.0,-4.6759843826293945e-05,-0.0025484825018793344,0.0009396534878760576,0.0,1.1
130,0.2618069648742676,0.0,-3.4868717193603516e-06,0.009677920490503311,-0.0001649702899158001,0.0,1.1
131,0.2642087936401367,0.0,1.8775463104248047e-06,-0.0027272969018667936,0.0023369453847408295,0.0,1.1
132,0.2658426761627197,0.0,-3.802776336669922e-05,-0.003479805774986744,0.007415070664137602,0.0,1.2000000000000002
133,0.2678382396697998,0.0,-1.9341707229614258e-05,0.004879745189100504,-0.0015975148417055607,0.0,1.2000000000000002
134,0.2698068618774414,0.0,-1.6689300537109375e-05,0.0058930241502821445,0.001615556888282299,0.0,1.2000000000000002
135,0.27214813232421875,0.0,1.1622905731201172e-06,0.005252274684607983,-0.0015815987717360258,0.0,1.2000000000000002
136,0.2738068103790283,0.0,-3.3020973205566406e-05,-0.010129449889063835,-0.003162402892485261,0.0,1.2000000000000002
137,0.2758026123046875,0.0,-2.1219253540039062e-05,-0.0005703548667952418,0.002487191930413246,0.0,1.2000000000000002
138,0.2778036594390869,0.0,-3.713369369506836e-05,0.004130961839109659,0.0018373935017734766,0.0,1.3
139,0.2800259590148926,0.0,2.115964889526367e-06,0.003169837174937129,-0.005623603239655495,0.0,1.3
140,0.28216052055358887,0.0,-2.980232238769531e-07,0.0002156811096938327,-0.0004176627844572067,0.0,1.3
141,0.28401851654052734,0.0,-2.6673078536987305e-05,0.002272040117532015,-0.0007279952988028526,0.0,1.3
142,0.28601837158203125,0.0,-1.609325408935547e-05,-0.008557378314435482,0.00014663254842162132,0.0,1.3
143,0.28826141357421875,0.0,1.8477439880371094e-06,0.006392211653292179,-0.001988635864108801,0.0,1.4000000000000001
144,0.2901613712310791,0.0,-2.804398536682129e-05,-0.009227931499481201,0.0064187925308942795,0.0,1.4000000000000001
145,0.2918052673339844,0.0,-4.2766332626342773e-05,-0.004973649512976408,-0.0029891852755099535,0.0,1.4000000000000001
146,0.29380321502685547,0.0,-3.1620264053344727e-05,-0.004467010032385588,0.002651632996276021,0.0,1.4000000000000001
147,0.29613757133483887,0.0,-1.6689300537109375e-06,0.003747255075722933,-0.00015652657020837069,0.0,1.4000000000000001
148,0.29782700538635254,0.0,-2.1725893020629883e-05,0.00027528428472578526,0.0007357674185186625,0.0,1.5
149,0.2998061180114746,0.0,-2.7865171432495117e-05,-0.005592048168182373,0.0013777358690276742,0.0,1.5
150,0.3018033504486084,0.0,-1.519918441772461e-05,0.0015195317100733519,0.003508094698190689,0.0,1.5
151,0.3038027286529541,0.0,2.592802047729492e-06,0.006306529976427555,0.002740140538662672,0.0,1.5
152,0.3058452606201172,0.0,-7.659196853637695e-06,-0.0023249671794474125,-0.0020000385120511055,0.0,1.5
153,0.3078033924102783,0.0,-6.008148193359375e-05,-0.014990954659879208,0.0040237074717879295,0.0,1.6
154,0.3098132610321045,0.0,-2.8878450393676758e-05,0.012620898894965649,-0.00017514510545879602,0.0,1.6
155,0.3118104934692383,0.0,4.202127456665039e-06,0.00852680578827858,-0.00012015202082693577,0.0,1.6
156,0.31415247917175293,0.0,-2.2411346435546875e-05,-0.013146933168172836,-0.0008534463122487068,0.0,1.6
157,0.31580686569213867,0.0,-4.7206878662109375e-05,-0.011444474570453167,0.0030716739129275084,0.0,1.6
158,0.31781554222106934,-0.0,-2.086162567138672e-05,0.011924272403120995,-0.0014068674063310027,0.0,1.7000000000000002
159,0.3198127746582031,-0.0,1.7285346984863281e-06,0.008057421073317528,-0.0003231004811823368,0.0,1.7000000000000002
160,0.3219485282897949,-0.0,-1.537799835205078e-05,-0.008114065043628216,0.0013085815589874983,0.0,1.7000000000000002
161,0.32380223274230957,-0.0,-3.8564205169677734e-05,-0.003669793251901865,0.0007198905805125833,0.0,1.7000000000000002
162,0.3258075714111328,-0.0,-4.6133995056152344e-05,-0.0038560584653168917,-0.001188129186630249,0.0,1.7000000000000002
163,0.32781410217285156,-0.0,2.4139881134033203e-06,0.004008030518889427,-0.003917093854397535,0.0,1.8
164,0.3298029899597168,-0.0,1.1920928955078125e-07,-0.00025742730940692127,0.002223370596766472,0.0,1.8
165,0.33192896842956543,-0.0,-1.9550323486328125e-05,-0.005938495043665171,-0.0005954360822215676,0.0,1.8
166,0.33381199836730957,-0.0,-3.400444984436035e-05,-0.005279120057821274,-0.0016446956433355808,0.0,1.8
167,0.33580636978149414,-0.0,-4.824995994567871e-05,0.003918623086065054,0.0032707827631384134,0.0,1.8
168,0.33780503273010254,-0.0,3.3676624298095703e-06,0.0042427233420312405,-0.0011206325143575668,0.0,1.9000000000000001
169,0.3400087356567383,-0.0,-1.659989356994629e-05,-0.0028763068839907646,-0.0006649616407230496,0.0,1.9000000000000001
170,0.3418090343475342,-0.0,-3.889203071594238e-05,0.001865986967459321,0.004063480533659458,0.0,1.9000000000000001
171,0.34382081031799316,-0.0,-1.8537044525146484e-05,-0.003878410905599594,-0.0018673331942409277,0.0,1.9000000000000001
172,0.3458240032196045,-0.0,-3.2782554626464844e-07,0.009931240230798721,-0.0030076312832534313,0.0,1.9000000000000001
173,0.34781885147094727,-0.0,-1.3202428817749023e-05,-0.006281223148107529,-0.00042411312460899353,0.0,2.0
174,0.34998202323913574,-0.0,-5.9276819229125977e-05,-0.006165739148855209,0.0007666032761335373,0.0,2.0
175,0.3518033027648926,-0.0,-3.9249658584594727e-05,0.0021453837398439646,0.00027814845088869333,0.0,2.0
176,0.3538057804107666,-0.0,-1.7255544662475586e-05,0.006213400978595018,-0.0030940910801291466,0.0,2.0
177,0.355804443359375,-0.0,-1.7881393432617188e-07,-0.00015312060713768005,-0.00160871387924999,0.0,2.0
178,0.35816073417663574,-0.0,-5.555152893066406e-05,-0.0009726849966682494,-0.0004622894339263439,0.0,2.1
179,0.3599269390106201,-0.0,-3.266334533691406e-05,0.004104885272681713,0.0007787125650793314,0.0,2.1
180,0.3623077869415283,-0.0,3.039836883544922e-06,0.010039272718131542,0.003832739545032382,0.0,2.1
181,0.36380553245544434,-0.0,-5.930662155151367e-06,0.0042017423547804356,0.0015061633894219995,0.0,2.1
182,0.3659627437591553,-0.0,-4.0531158447265625e-05,-0.005904970224946737,0.000382200232706964,0.0,2.1
183,0.36792969703674316,-0.0,-4.9561262130737305e-05,0.006451817695051432,-0.002834716811776161,0.0,2.2
184,0.3699812889099121,-0.0,3.993511199951172e-06,0.01081413310021162,-0.0007037415052764118,0.0,2.2
185,0.3718092441558838,-0.0,-6.139278411865234e-06,-0.0018704812973737717,-0.004557384178042412,0.0,2.2
186,0.3741912841796875,-0.0,-3.904104232788086e-05,-0.013977674767374992,0.0033700037747621536,0.0,2.2
187,0.3759572505950928,-0.0,-1.946091651916504e-05,0.014662358909845352,-0.001452521770261228,0.0,2.2
188,0.37786364555358887,-0.0,-1.3709068298339844e-06,0.011015298776328564,-0.0008821969386190176,0.0,2.3000000000000003
